
                            < M A T L A B (R) >
                  Copyright 1984-2013 The MathWorks, Inc.
                    R2013a (8.1.0.604) 64-bit (glnxa64)
                             February 15, 2013

 
To get started, type one of these: helpwin, helpdesk, or demo.
For product information, visit www.mathworks.com.
 
>> >> >> >> >> >> >> >> X-ray simulation startup file...
====== With Self Absorption, Transmission Detector Resolution is 19
====== Fluorescence Detector Resolution is 5
====== Angle Number  1 of 7: 0
====== Angle Number  2 of 7: 30
====== Angle Number  3 of 7: 60
====== Angle Number  4 of 7: 90
====== Angle Number  5 of 7: 120
====== Angle Number  6 of 7: 150
====== Angle Number  7 of 7: 180
>> >> >> >> >> >> ===================== 10
  it     nf     cg           f            |g|      alpha        error
   0      1      0    1.57032476e+04   9.2e+04     1.0e+00      3.202e+00
   1      2      3    1.58488690e+03   2.1e+04     1.0e+00      3.184e+00
   2      3      6    3.98900502e+02   1.8e+03     1.0e+00      3.171e+00
   3      4     16    1.86527808e+02   4.2e+02     1.0e+00      2.930e+00
   4      5     19    5.09316323e+01   1.6e+02     1.0e+00      2.896e+00
   5      6     29    1.28657519e+01   8.9e+01     1.0e+00      2.708e+00
   6      7     32    6.46818292e+00   2.0e+01     1.0e+00      2.703e+00
   7      8     41    2.65919729e+00   9.7e+00     1.0e+00      2.644e+00
   8      9     51    1.65501934e+00   3.2e+00     1.0e+00      2.610e+00
   9     10     61    1.45313578e+00   2.1e+00     1.0e+00      2.607e+00
  10     11     66    1.41092759e+00   1.3e+00     1.0e+00      2.607e+00
  11     12     76    1.28082511e+00   2.6e+00     1.0e+00      2.619e+00
  12     13     81    1.23069859e+00   2.1e+00     1.0e+00      2.619e+00
  13     14     91    1.18184477e+00   1.2e+00     1.0e+00      2.629e+00
  14     15     93    1.17285401e+00   9.0e-01     1.0e+00      2.629e+00
  15     16    101    1.15355455e+00   7.1e-01     1.0e+00      2.633e+00
  16     17    111    1.13017601e+00   1.4e+00     1.0e+00      2.646e+00
  17     18    118    1.11363965e+00   8.2e-01     1.0e+00      2.649e+00
  18     19    128    1.08757900e+00   7.9e-01     1.0e+00      2.686e+00
  19     20    133    1.07719866e+00   5.9e-01     1.0e+00      2.687e+00
  20     21    138    1.07365728e+00   4.1e-01     1.0e+00      2.687e+00
  21     23    148    1.07306126e+00   3.7e-01     4.4e-02      2.688e+00
  22     24    158    1.06773967e+00   4.4e-01     1.0e+00      2.695e+00
  23     25    168    1.06343554e+00   1.8e-01     1.0e+00      2.700e+00
  24     26    178    1.05988455e+00   3.8e-01     1.0e+00      2.706e+00
  25     27    188    1.05671862e+00   1.2e-01     1.0e+00      2.710e+00
  26     28    198    1.05384534e+00   3.6e-01     1.0e+00      2.717e+00
  27     29    208    1.05134062e+00   1.2e-01     1.0e+00      2.720e+00
  28     30    214    1.05027448e+00   3.8e-01     1.0e+00      2.722e+00
  29     31    224    1.04461670e+00   7.8e-01     1.0e+00      2.750e+00
  30     32    226    1.04206456e+00   9.5e-01     1.0e+00      2.750e+00
  31     33    233    1.03828885e+00   1.8e-01     1.0e+00      2.751e+00
  32     34    243    1.03700661e+00   2.1e-01     1.0e+00      2.757e+00
  33     35    248    1.03596264e+00   3.1e-01     1.0e+00      2.758e+00
  34     36    258    1.03492919e+00   1.2e-01     1.0e+00      2.763e+00
  35     37    268    1.03411415e+00   1.0e-01     1.0e+00      2.764e+00
  36     38    278    1.03355314e+00   1.3e-01     1.0e+00      2.768e+00
  37     39    284    1.03316647e+00   1.1e-01     1.0e+00      2.769e+00
  38     40    288    1.03307174e+00   5.9e-02     1.0e+00      2.769e+00
  39     41    298    1.03055007e+00   1.7e-01     1.0e+00      2.795e+00
  40     42    303    1.02900617e+00   1.4e-01     1.0e+00      2.796e+00
  41     43    308    1.02880739e+00   7.3e-02     1.0e+00      2.796e+00
  42     44    318    1.02843091e+00   1.7e-01     1.0e+00      2.799e+00
  43     45    320    1.02827699e+00   7.7e-02     1.0e+00      2.799e+00
  44     46    330    1.02800968e+00   8.9e-02     1.0e+00      2.800e+00
  45     47    335    1.02788896e+00   8.7e-02     1.0e+00      2.800e+00
  46     48    345    1.02742313e+00   2.9e-01     1.0e+00      2.805e+00
  47     49    348    1.02718909e+00   1.4e-01     1.0e+00      2.805e+00
  48     50    356    1.02697043e+00   1.3e-01     1.0e+00      2.806e+00
  49     51    366    1.02645199e+00   7.9e-02     1.0e+00      2.812e+00
  50     52    369    1.02618625e+00   3.1e-01     1.0e+00      2.812e+00
  51     53    376    1.02599952e+00   1.1e-01     1.0e+00      2.812e+00
  52     54    386    1.02544270e+00   2.3e-01     1.0e+00      2.820e+00
  53     55    391    1.02504491e+00   1.3e-01     1.0e+00      2.820e+00
  54     56    401    1.02491259e+00   4.5e-02     1.0e+00      2.820e+00
  55     57    411    1.02480926e+00   6.0e-02     1.0e+00      2.821e+00
  56     58    416    1.02475754e+00   5.7e-02     1.0e+00      2.821e+00
  57     59    426    1.02451115e+00   1.5e-01     1.0e+00      2.824e+00
  58     60    429    1.02438630e+00   2.3e-01     1.0e+00      2.824e+00
  59     61    432    1.02434409e+00   4.8e-02     1.0e+00      2.824e+00
  60     62    439    1.02426924e+00   4.9e-02     1.0e+00      2.825e+00
  61     63    449    1.02393903e+00   2.3e-01     1.0e+00      2.829e+00
  62     64    452    1.02373544e+00   2.1e-01     1.0e+00      2.829e+00
  63     65    460    1.02363138e+00   7.9e-02     1.0e+00      2.830e+00
  64     66    470    1.02299583e+00   1.2e-01     1.0e+00      2.839e+00
  65     67    472    1.02279731e+00   2.3e-01     1.0e+00      2.839e+00
  66     68    478    1.02245015e+00   3.2e-02     1.0e+00      2.839e+00
  67     69    488    1.02234216e+00   7.0e-02     1.0e+00      2.841e+00
  68     70    491    1.02230227e+00   5.4e-02     1.0e+00      2.841e+00
  69     71    501    1.02221366e+00   3.6e-02     1.0e+00      2.842e+00
  70     72    504    1.02218818e+00   2.7e-02     1.0e+00      2.842e+00
  71     73    514    1.02211251e+00   4.9e-02     1.0e+00      2.842e+00
  72     74    523    1.02204842e+00   2.6e-02     1.0e+00      2.843e+00
  73     75    533    1.02188103e+00   1.3e-01     1.0e+00      2.845e+00
  74     76    535    1.02178425e+00   4.3e-02     1.0e+00      2.845e+00
  75     77    545    1.02170528e+00   3.3e-02     1.0e+00      2.846e+00
  76     78    555    1.02163481e+00   4.0e-02     1.0e+00      2.847e+00
  77     79    561    1.02159077e+00   7.0e-02     1.0e+00      2.847e+00
  78     80    571    1.02140923e+00   1.7e-01     1.0e+00      2.850e+00
  79     81    574    1.02129954e+00   1.8e-01     1.0e+00      2.850e+00
  80     82    582    1.02122797e+00   2.6e-02     1.0e+00      2.850e+00
  81     83    592    1.02111260e+00   8.1e-02     1.0e+00      2.852e+00
  82     84    595    1.02104757e+00   8.1e-02     1.0e+00      2.852e+00
  83     85    605    1.02097553e+00   6.1e-02     1.0e+00      2.853e+00
  84     86    610    1.02095049e+00   2.8e-02     1.0e+00      2.853e+00
  85     87    620    1.02076195e+00   1.3e-01     1.0e+00      2.856e+00
  86     88    626    1.02058720e+00   6.6e-02     1.0e+00      2.856e+00
  87     89    636    1.02042700e+00   1.3e-01     1.0e+00      2.859e+00
  88     90    639    1.02033666e+00   1.2e-01     1.0e+00      2.859e+00
  89     91    646    1.02026951e+00   3.1e-02     1.0e+00      2.859e+00
  90     92    656    1.01998419e+00   2.6e-01     1.0e+00      2.865e+00
  91     93    658    1.01977809e+00   1.3e-01     1.0e+00      2.865e+00
  92     94    665    1.01970226e+00   1.3e-02     1.0e+00      2.865e+00
  93     95    675    1.01954656e+00   1.3e-01     1.0e+00      2.868e+00
  94     96    677    1.01948933e+00   1.1e-01     1.0e+00      2.868e+00
  95     97    685    1.01939567e+00   3.0e-02     1.0e+00      2.868e+00
  96     98    695    1.01916828e+00   1.8e-01     1.0e+00      2.873e+00
  97     99    697    1.01904106e+00   4.6e-02     1.0e+00      2.873e+00
  98    100    707    1.01892010e+00   6.7e-02     1.0e+00      2.873e+00
  99    101    717    1.01882279e+00   8.0e-02     1.0e+00      2.875e+00
 100    102    721    1.01878446e+00   3.6e-02     1.0e+00      2.875e+00
LMQNBC: termination 5

-------------
Optimization costs per grid
-------------
N:         10
-------------
NF(it):   100
NF(nf):   102
NF(cg):   721
-------------

>> >> 