
                            < M A T L A B (R) >
                  Copyright 1984-2013 The MathWorks, Inc.
                    R2013a (8.1.0.604) 64-bit (glnxa64)
                             February 15, 2013

 
To get started, type one of these: helpwin, helpdesk, or demo.
For product information, visit www.mathworks.com.
 
>> >> >> >> >> >> >> >> X-ray simulation startup file...
====== Fluorescence Detector Resolution is 5
====== Angle Number  1 of 12: 0
====== Angle Number  2 of 12: 1.636364e+01
====== Angle Number  3 of 12: 3.272727e+01
====== Angle Number  4 of 12: 4.909091e+01
====== Angle Number  5 of 12: 6.545455e+01
====== Angle Number  6 of 12: 8.181818e+01
====== Angle Number  7 of 12: 9.818182e+01
====== Angle Number  8 of 12: 1.145455e+02
====== Angle Number  9 of 12: 1.309091e+02
====== Angle Number  10 of 12: 1.472727e+02
====== Angle Number  11 of 12: 1.636364e+02
====== Angle Number  12 of 12: 180
>> >> >> >> >> >> >> >> >> >> >> >> >> ====== No Self Absorption, Transmission Detector Resolution is 30
>> >> >> >> >> >> >> >> >> >> >> Elapsed time is 4.055054 seconds.
>> >> >> >> >> >> >> >> >> >> >> >> >> >> >> >> >> >>   it     nf     cg           f             f_xrf             f_xtm            |g|        alpha        error
   0      1      0    2.66520530e+10   7.6e+08     1.0e+00      2.570e+00
   1      2      2    4.00995656e+09    2.95933354e+09     1.05062303e+01    2.2e+08     1.0e+00      5.511e+00
   2      3      5    1.34552667e+09    1.19314281e+09     1.52383852e+00    7.5e+07     1.0e+00      8.024e+00
   3      4     10    7.74303795e+08    7.24794875e+08     4.95089201e-01    2.7e+07     1.0e+00      9.870e+00
   4      5     17    7.05259510e+08    6.78491302e+08     2.67682086e-01    1.0e+07     1.0e+00      1.057e+01
   5      7     27    7.05240476e+08    6.78478375e+08     2.67621011e-01    1.0e+07     3.5e-04      1.057e+01
   6      9     37    7.04580239e+08    6.78028932e+08     2.65513068e-01    1.0e+07     1.2e-02      1.058e+01
   7     11     47    7.04172061e+08    6.77752116e+08     2.64199448e-01    1.0e+07     7.8e-03      1.058e+01
   8     12     57    6.98689128e+08    6.77425138e+08     2.12639893e-01    4.1e+07     1.0e+00      1.117e+01
   9     13     60    6.83894694e+08    6.66458443e+08     1.74362505e-01    7.6e+06     1.0e+00      1.115e+01
  10     14     70    6.76705696e+08    6.63894080e+08     1.28116161e-01    6.1e+06     1.0e+00      1.143e+01
  11     15     80    6.72820340e+08    6.61772716e+08     1.10476241e-01    3.9e+06     1.0e+00      1.168e+01
  12     16     90    6.69932356e+08    6.60288654e+08     9.64370160e-02    2.8e+06     1.0e+00      1.192e+01
  13     17    100    6.67719588e+08    6.58673336e+08     9.04625121e-02    3.7e+06     1.0e+00      1.216e+01
  14     18    110    6.65920988e+08    6.57420293e+08     8.50069475e-02    2.5e+06     1.0e+00      1.238e+01
  15     19    120    6.64512228e+08    6.56260524e+08     8.25170382e-02    3.2e+06     1.0e+00      1.258e+01
  16     20    130    6.63327527e+08    6.55302413e+08     8.02511416e-02    2.6e+06     1.0e+00      1.279e+01
  17     21    140    6.62275709e+08    6.54342663e+08     7.93304568e-02    2.6e+06     1.0e+00      1.296e+01
  18     22    150    6.61310636e+08    6.53456138e+08     7.85449847e-02    2.4e+06     1.0e+00      1.317e+01
  19     23    160    6.60424332e+08    6.52530861e+08     7.89347116e-02    2.4e+06     1.0e+00      1.334e+01
  20     24    170    6.59606334e+08    6.51670499e+08     7.93583487e-02    2.3e+06     1.0e+00      1.353e+01
  21     25    180    6.58844185e+08    6.50810102e+08     8.03408218e-02    2.2e+06     1.0e+00      1.370e+01
  22     26    190    6.58134011e+08    6.50043121e+08     8.09089019e-02    2.2e+06     1.0e+00      1.389e+01
  23     27    200    6.57519420e+08    6.49391676e+08     8.12774397e-02    1.8e+06     1.0e+00      1.403e+01
  24     28    210    6.56933610e+08    6.48795700e+08     8.13790994e-02    2.1e+06     1.0e+00      1.421e+01
  25     29    220    6.56369881e+08    6.48149038e+08     8.22084372e-02    1.7e+06     1.0e+00      1.435e+01
  26     30    230    6.55825712e+08    6.47571657e+08     8.25405426e-02    2.0e+06     1.0e+00      1.453e+01
  27     31    240    6.55297612e+08    6.46924992e+08     8.37262051e-02    2.0e+06     1.0e+00      1.468e+01
  28     32    250    6.54777493e+08    6.46397021e+08     8.38047229e-02    2.0e+06     1.0e+00      1.486e+01
  29     33    260    6.54284623e+08    6.45815202e+08     8.46942017e-02    1.7e+06     1.0e+00      1.500e+01
  30     34    270    6.53810230e+08    6.45291680e+08     8.51854954e-02    1.9e+06     1.0e+00      1.517e+01
  31     35    280    6.53348169e+08    6.44740549e+08     8.60762021e-02    1.7e+06     1.0e+00      1.531e+01
  32     36    290    6.52908083e+08    6.44224478e+08     8.68360473e-02    1.9e+06     1.0e+00      1.548e+01
  33     37    300    6.52483921e+08    6.43730377e+08     8.75354412e-02    1.8e+06     1.0e+00      1.562e+01
  34     38    310    6.52081166e+08    6.43303337e+08     8.77782871e-02    1.8e+06     1.0e+00      1.577e+01
  35     39    320    6.51695971e+08    6.42868726e+08     8.82724517e-02    1.7e+06     1.0e+00      1.591e+01
  36     40    330    6.51320085e+08    6.42429021e+08     8.89106416e-02    1.6e+06     1.0e+00      1.606e+01
  37     41    340    6.50954693e+08    6.42024339e+08     8.93035399e-02    1.6e+06     1.0e+00      1.620e+01
  38     42    350    6.50595485e+08    6.41628263e+08     8.96722242e-02    1.6e+06     1.0e+00      1.635e+01
  39     43    360    6.50243483e+08    6.41210979e+08     9.03250417e-02    1.6e+06     1.0e+00      1.649e+01
  40     44    370    6.49905562e+08    6.40810974e+08     9.09458832e-02    1.5e+06     1.0e+00      1.663e+01
  41     45    380    6.49576656e+08    6.40446311e+08     9.13034539e-02    1.5e+06     1.0e+00      1.676e+01
  42     46    390    6.49253669e+08    6.40072184e+08     9.18148527e-02    1.5e+06     1.0e+00      1.690e+01
  43     47    400    6.48936782e+08    6.39693866e+08     9.24291597e-02    1.5e+06     1.0e+00      1.704e+01
  44     48    410    6.48629718e+08    6.39369510e+08     9.26020770e-02    1.5e+06     1.0e+00      1.718e+01
  45     49    420    6.48331366e+08    6.39010175e+08     9.32119014e-02    1.4e+06     1.0e+00      1.731e+01
  46     50    430    6.48038200e+08    6.38698544e+08     9.33965598e-02    1.5e+06     1.0e+00      1.745e+01
  47     51    440    6.47746296e+08    6.38337801e+08     9.40849590e-02    1.5e+06     1.0e+00      1.758e+01
  48     52    450    6.47456754e+08    6.38026064e+08     9.43069046e-02    1.5e+06     1.0e+00      1.772e+01
  49     53    460    6.47175307e+08    6.37645570e+08     9.52973699e-02    1.4e+06     1.0e+00      1.785e+01
  50     54    470    6.46903210e+08    6.37380288e+08     9.52292141e-02    1.4e+06     1.0e+00      1.799e+01
  51     55    480    6.46629562e+08    6.37031910e+08     9.59765184e-02    1.5e+06     1.0e+00      1.813e+01
  52     56    490    6.46361055e+08    6.36758942e+08     9.60211264e-02    1.4e+06     1.0e+00      1.826e+01
  53     57    500    6.46097247e+08    6.36403637e+08     9.69361014e-02    1.4e+06     1.0e+00      1.840e+01
  54     58    510    6.45837611e+08    6.36142073e+08     9.69553849e-02    1.3e+06     1.0e+00      1.853e+01
  55     59    520    6.45582454e+08    6.35797526e+08     9.78492845e-02    1.4e+06     1.0e+00      1.867e+01
  56     60    530    6.45333862e+08    6.35558420e+08     9.77544230e-02    1.2e+06     1.0e+00      1.879e+01
  57     61    540    6.45095277e+08    6.35245646e+08     9.84963067e-02    1.3e+06     1.0e+00      1.893e+01
  58     62    550    6.44868194e+08    6.35021623e+08     9.84657107e-02    1.1e+06     1.0e+00      1.904e+01
  59     63    560    6.44649201e+08    6.34725656e+08     9.92354506e-02    1.2e+06     1.0e+00      1.918e+01
  60     64    570    6.44436793e+08    6.34521459e+08     9.91533355e-02    9.4e+05     1.0e+00      1.928e+01
  61     65    580    6.44229692e+08    6.34238248e+08     9.99144404e-02    1.2e+06     1.0e+00      1.942e+01
  62     66    590    6.44031681e+08    6.34067932e+08     9.96374871e-02    9.5e+05     1.0e+00      1.952e+01
  63     67    600    6.43842125e+08    6.33798191e+08     1.00439341e-01    1.1e+06     1.0e+00      1.964e+01
  64     68    610    6.43657607e+08    6.33635496e+08     1.00221113e-01    9.0e+05     1.0e+00      1.974e+01
  65     69    620    6.43476548e+08    6.33385253e+08     1.00912952e-01    1.1e+06     1.0e+00      1.987e+01
  66     70    630    6.43298506e+08    6.33225629e+08     1.00728772e-01    1.0e+06     1.0e+00      1.996e+01
  67     71    640    6.43123335e+08    6.32982716e+08     1.01406189e-01    1.1e+06     1.0e+00      2.009e+01
  68     72    650    6.42949337e+08    6.32824277e+08     1.01250593e-01    1.2e+06     1.0e+00      2.018e+01
  69     73    660    6.42779553e+08    6.32597059e+08     1.01824935e-01    1.1e+06     1.0e+00      2.030e+01
  70     74    670    6.42607985e+08    6.32431289e+08     1.01766960e-01    1.5e+06     1.0e+00      2.040e+01
  71     75    680    6.42436927e+08    6.32214794e+08     1.02221329e-01    1.1e+06     1.0e+00      2.052e+01
  72     76    690    6.42270792e+08    6.32066291e+08     1.02045006e-01    1.1e+06     1.0e+00      2.062e+01
  73     77    700    6.42107342e+08    6.31841028e+08     1.02663147e-01    1.1e+06     1.0e+00      2.074e+01
  74     78    710    6.41951830e+08    6.31749879e+08     1.02019506e-01    7.5e+05     1.0e+00      2.083e+01
  75     79    720    6.41801986e+08    6.31530820e+08     1.02711653e-01    1.0e+06     1.0e+00      2.094e+01
  76     80    730    6.41656037e+08    6.31430585e+08     1.02254520e-01    7.1e+05     1.0e+00      2.103e+01
  77     81    740    6.41511538e+08    6.31212917e+08     1.02986205e-01    1.0e+06     1.0e+00      2.113e+01
  78     82    750    6.41368474e+08    6.31116704e+08     1.02517706e-01    6.9e+05     1.0e+00      2.122e+01
  79     83    760    6.41230358e+08    6.30901149e+08     1.03292096e-01    1.0e+06     1.0e+00      2.133e+01
  80     84    770    6.41095322e+08    6.30809876e+08     1.02854457e-01    6.9e+05     1.0e+00      2.141e+01
  81     85    780    6.40961159e+08    6.30601390e+08     1.03597696e-01    9.9e+05     1.0e+00      2.152e+01
  82     86    790    6.40828677e+08    6.30508615e+08     1.03200614e-01    6.9e+05     1.0e+00      2.161e+01
  83     87    800    6.40697899e+08    6.30306454e+08     1.03914449e-01    9.9e+05     1.0e+00      2.171e+01
  84     88    810    6.40569409e+08    6.30220730e+08     1.03486782e-01    7.1e+05     1.0e+00      2.179e+01
  85     89    820    6.40439567e+08    6.30018316e+08     1.04212511e-01    1.2e+06     1.0e+00      2.190e+01
  86     90    830    6.40310466e+08    6.29937673e+08     1.03727930e-01    6.6e+05     1.0e+00      2.199e+01
  87     91    840    6.40188446e+08    6.29745928e+08     1.04425178e-01    1.2e+06     1.0e+00      2.209e+01
  88     92    850    6.40064843e+08    6.29669068e+08     1.03957755e-01    6.4e+05     1.0e+00      2.217e+01
  89     93    860    6.39923429e+08    6.29453754e+08     1.04696743e-01    1.7e+06     1.0e+00      2.231e+01
  90     94    870    6.39783930e+08    6.29360826e+08     1.04231036e-01    5.9e+05     1.0e+00      2.239e+01
  91     95    880    6.39651072e+08    6.29157513e+08     1.04935594e-01    1.7e+06     1.0e+00      2.252e+01
  92     96    885    6.39573604e+08    6.29044987e+08     1.05286164e-01    8.8e+05     1.0e+00      2.254e+01
  93     97    895    6.39159989e+08    6.28588166e+08     1.05718225e-01    2.2e+06     1.0e+00      2.340e+01
  94     98    901    6.38562628e+08    6.27880976e+08     1.06816513e-01    7.4e+05     1.0e+00      2.340e+01
  95     99    906    6.38517450e+08    6.27944769e+08     1.05726808e-01    4.6e+05     1.0e+00      2.342e+01
  96    100    916    6.38247125e+08    6.27424913e+08     1.08222123e-01    8.8e+05     1.0e+00      2.377e+01
  97    101    924    6.38046176e+08    6.27336234e+08     1.07099418e-01    4.4e+05     1.0e+00      2.383e+01
  98    102    934    6.37915624e+08    6.27111874e+08     1.08037504e-01    1.1e+06     1.0e+00      2.397e+01
  99    103    938    6.37859587e+08    6.27170985e+08     1.06886017e-01    5.7e+05     1.0e+00      2.398e+01
 100    104    948    6.37732740e+08    6.27054639e+08     1.06781016e-01    1.0e+06     1.0e+00      2.415e+01
 101    105    958    6.37613475e+08    6.26901491e+08     1.07119836e-01    4.6e+05     1.0e+00      2.420e+01
 102    106    968    6.37508962e+08    6.26816015e+08     1.06929470e-01    7.6e+05     1.0e+00      2.434e+01
 103    107    978    6.37405916e+08    6.26668285e+08     1.07376311e-01    4.1e+05     1.0e+00      2.439e+01
 104    108    988    6.37306774e+08    6.26606868e+08     1.06999064e-01    8.3e+05     1.0e+00      2.452e+01
 105    109    998    6.37208646e+08    6.26458361e+08     1.07502847e-01    4.2e+05     1.0e+00      2.457e+01
 106    110   1008    6.37113064e+08    6.26397511e+08     1.07155535e-01    1.0e+06     1.0e+00      2.469e+01
 107    111   1018    6.37018274e+08    6.26262070e+08     1.07562035e-01    4.3e+05     1.0e+00      2.474e+01
 108    112   1028    6.36925313e+08    6.26199504e+08     1.07258090e-01    1.2e+06     1.0e+00      2.486e+01
 109    113   1035    6.36849573e+08    6.26076549e+08     1.07730241e-01    5.4e+05     1.0e+00      2.489e+01
 110    114   1045    6.36566600e+08    6.25799238e+08     1.07673615e-01    1.8e+06     1.0e+00      2.540e+01
 111    115   1048    6.36396447e+08    6.25619423e+08     1.07770244e-01    1.4e+06     1.0e+00      2.541e+01
 112    116   1054    6.36285843e+08    6.25481843e+08     1.08040001e-01    3.1e+05     1.0e+00      2.543e+01
 113    117   1064    6.35978367e+08    6.25208560e+08     1.07698071e-01    2.4e+06     1.0e+00      2.612e+01
 114    118   1068    6.35690437e+08    6.24880614e+08     1.08098233e-01    9.3e+05     1.0e+00      2.612e+01
 115    119   1075    6.35583541e+08    6.24744694e+08     1.08388465e-01    5.7e+05     1.0e+00      2.614e+01
 116    120   1085    6.35438869e+08    6.24519096e+08     1.09197729e-01    1.4e+06     1.0e+00      2.637e+01
 117    121   1094    6.35316727e+08    6.24444430e+08     1.08722977e-01    4.3e+05     1.0e+00      2.641e+01
 118    122   1104    6.35218757e+08    6.24375474e+08     1.08432835e-01    1.3e+06     1.0e+00      2.656e+01
 119    123   1109    6.35158754e+08    6.24242483e+08     1.09162711e-01    6.2e+05     1.0e+00      2.657e+01
 120    124   1119    6.35026567e+08    6.23983441e+08     1.10431261e-01    9.1e+05     1.0e+00      2.679e+01
 121    125   1125    6.34924754e+08    6.23991748e+08     1.09330060e-01    4.5e+05     1.0e+00      2.682e+01
 122    126   1135    6.34803745e+08    6.23829357e+08     1.09743887e-01    8.7e+05     1.0e+00      2.701e+01
 123    127   1145    6.34694758e+08    6.23763709e+08     1.09310486e-01    5.8e+05     1.0e+00      2.706e+01
 124    128   1155    6.34630274e+08    6.23636852e+08     1.09934212e-01    6.9e+05     1.0e+00      2.714e+01
 125    129   1162    6.34584330e+08    6.23612135e+08     1.09721948e-01    3.9e+05     1.0e+00      2.717e+01
 126    130   1172    6.34347301e+08    6.23275352e+08     1.10719484e-01    3.6e+06     1.0e+00      2.765e+01
 127    131   1174    6.34200305e+08    6.23136736e+08     1.10635688e-01    8.6e+05     1.0e+00      2.765e+01
 128    132   1180    6.34124808e+08    6.23109957e+08     1.10148503e-01    4.3e+05     1.0e+00      2.766e+01
 129    133   1190    6.33924662e+08    6.22732613e+08     1.11920497e-01    1.7e+06     1.0e+00      2.811e+01
 130    134   1193    6.33807944e+08    6.22637292e+08     1.11706521e-01    1.1e+06     1.0e+00      2.811e+01
 131    135   1199    6.33718839e+08    6.22616473e+08     1.11023662e-01    3.9e+05     1.0e+00      2.813e+01
 132    136   1209    6.33628782e+08    6.22518556e+08     1.11102259e-01    6.1e+05     1.0e+00      2.825e+01
 133    137   1219    6.33554642e+08    6.22461861e+08     1.10927808e-01    5.6e+05     1.0e+00      2.831e+01
 134    138   1229    6.33494283e+08    6.22382482e+08     1.11118006e-01    8.5e+05     1.0e+00      2.839e+01
 135    139   1239    6.33436764e+08    6.22342802e+08     1.10939618e-01    6.3e+05     1.0e+00      2.844e+01
 136    140   1249    6.33383107e+08    6.22264720e+08     1.11183867e-01    6.9e+05     1.0e+00      2.851e+01
 137    141   1259    6.33330461e+08    6.22231650e+08     1.10988110e-01    6.2e+05     1.0e+00      2.856e+01
 138    142   1269    6.33282288e+08    6.22160484e+08     1.11218041e-01    6.0e+05     1.0e+00      2.863e+01
 139    143   1279    6.33233675e+08    6.22130466e+08     1.11032089e-01    5.7e+05     1.0e+00      2.867e+01
 140    144   1289    6.33186010e+08    6.22064572e+08     1.11214375e-01    6.0e+05     1.0e+00      2.874e+01
 141    145   1299    6.33139304e+08    6.22037244e+08     1.11020603e-01    5.3e+05     1.0e+00      2.878e+01
 142    146   1309    6.33093242e+08    6.21969944e+08     1.11232982e-01    6.0e+05     1.0e+00      2.885e+01
 143    147   1319    6.33047386e+08    6.21944555e+08     1.11028302e-01    5.2e+05     1.0e+00      2.889e+01
 144    148   1329    6.33002189e+08    6.21889925e+08     1.11122640e-01    5.9e+05     1.0e+00      2.896e+01
 145    149   1339    6.32957860e+08    6.21879407e+08     1.10784529e-01    5.0e+05     1.0e+00      2.899e+01
 146    150   1349    6.32914720e+08    6.21835588e+08     1.10791320e-01    5.7e+05     1.0e+00      2.906e+01
 147    151   1359    6.32872396e+08    6.21821257e+08     1.10511389e-01    4.8e+05     1.0e+00      2.910e+01
 148    152   1369    6.32831416e+08    6.21778952e+08     1.10524636e-01    5.6e+05     1.0e+00      2.916e+01
 149    153   1379    6.32790820e+08    6.21761728e+08     1.10290928e-01    4.5e+05     1.0e+00      2.920e+01
 150    154   1389    6.32750788e+08    6.21711325e+08     1.10394636e-01    5.5e+05     1.0e+00      2.926e+01
 151    155   1399    6.32711215e+08    6.21695881e+08     1.10153338e-01    4.4e+05     1.0e+00      2.930e+01
 152    156   1409    6.32672031e+08    6.21643310e+08     1.10287204e-01    5.4e+05     1.0e+00      2.936e+01
 153    157   1419    6.32633258e+08    6.21627458e+08     1.10057997e-01    4.3e+05     1.0e+00      2.940e+01
 154    158   1429    6.32595518e+08    6.21573571e+08     1.10219470e-01    5.4e+05     1.0e+00      2.946e+01
 155    159   1439    6.32558056e+08    6.21557196e+08     1.10008604e-01    4.2e+05     1.0e+00      2.949e+01
 156    160   1449    6.32520875e+08    6.21504206e+08     1.10166691e-01    5.4e+05     1.0e+00      2.955e+01
 157    161   1459    6.32484079e+08    6.21487678e+08     1.09964015e-01    4.0e+05     1.0e+00      2.959e+01
 158    162   1469    6.32447487e+08    6.21439943e+08     1.10075444e-01    5.3e+05     1.0e+00      2.965e+01
 159    163   1479    6.32411750e+08    6.21420786e+08     1.09909640e-01    3.6e+05     1.0e+00      2.968e+01
 160    164   1489    6.32377258e+08    6.21378283e+08     1.09989746e-01    5.3e+05     1.0e+00      2.974e+01
 161    165   1499    6.32342818e+08    6.21358225e+08     1.09845927e-01    3.5e+05     1.0e+00      2.977e+01
 162    166   1509    6.32308670e+08    6.21313428e+08     1.09952421e-01    5.2e+05     1.0e+00      2.983e+01
 163    167   1519    6.32274927e+08    6.21291967e+08     1.09829597e-01    3.5e+05     1.0e+00      2.986e+01
 164    168   1529    6.32241359e+08    6.21246241e+08     1.09951185e-01    5.2e+05     1.0e+00      2.992e+01
 165    169   1539    6.32207939e+08    6.21225382e+08     1.09825570e-01    3.4e+05     1.0e+00      2.995e+01
 166    170   1549    6.32174648e+08    6.21180074e+08     1.09945743e-01    5.1e+05     1.0e+00      3.001e+01
